3.4860e-01 3.2045e+01
3.5681e-01 3.2226e+01
3.6501e-01 3.2760e+01
3.7321e-01 3.3186e+01
3.8141e-01 3.3597e+01
3.8962e-01 3.3945e+01
3.9782e-01 3.4238e+01
4.0602e-01 3.4383e+01
4.1422e-01 3.4539e+01
4.2243e-01 3.4637e+01
4.3063e-01 3.4798e+01
4.3883e-01 3.4960e+01
4.4703e-01 3.5102e+01
4.5524e-01 3.5267e+01
4.6344e-01 3.5348e+01
4.7164e-01 3.5375e+01
4.7985e-01 3.5339e+01
4.8805e-01 3.5363e+01
4.9625e-01 3.5330e+01
5.0445e-01 3.5291e+01
5.1266e-01 3.5232e+01
5.2086e-01 3.5165e+01
5.2906e-01 3.5139e+01
5.3726e-01 3.5139e+01
5.4547e-01 3.5052e+01
5.5367e-01 3.4996e+01
5.6187e-01 3.4965e+01
5.7007e-01 3.4849e+01
5.7828e-01 3.4685e+01
5.8648e-01 3.4609e+01
5.9468e-01 3.4446e+01
6.0288e-01 3.4224e+01
6.1109e-01 3.4078e+01
6.1929e-01 3.3881e+01
6.2749e-01 3.3744e+01
6.3569e-01 3.3639e+01
6.4390e-01 3.3394e+01
6.5210e-01 3.3219e+01
6.6030e-01 3.3056e+01
6.6850e-01 3.2855e+01
6.7671e-01 3.2703e+01
6.8491e-01 3.2521e+01
6.9311e-01 3.2323e+01
7.0131e-01 3.2140e+01
7.0952e-01 3.1967e+01
7.1772e-01 3.1783e+01
7.2592e-01 3.1611e+01
7.3412e-01 3.1416e+01
7.4233e-01 3.1249e+01
7.5053e-01 3.1004e+01
7.5873e-01 3.0823e+01
7.6694e-01 3.0649e+01
7.7514e-01 3.0480e+01
7.8334e-01 3.0320e+01
7.9154e-01 3.0136e+01
7.9975e-01 2.9948e+01
8.0795e-01 2.9772e+01
8.1615e-01 2.9538e+01
8.2435e-01 2.9345e+01
8.3256e-01 2.9150e+01
8.4076e-01 2.8949e+01
8.4896e-01 2.8791e+01
8.5716e-01 2.8636e+01
8.6537e-01 2.8477e+01
8.7357e-01 2.8284e+01
8.8177e-01 2.8053e+01
8.8998e-01 2.7920e+01
8.9818e-01 2.7755e+01
9.0638e-01 2.7576e+01
9.1458e-01 2.7402e+01
9.2279e-01 2.7214e+01
9.3099e-01 2.7060e+01
9.3919e-01 2.6918e+01
9.4739e-01 2.6711e+01
9.5560e-01 2.6593e+01
9.6380e-01 2.6437e+01
9.7200e-01 2.6276e+01
9.8021e-01 2.6129e+01
9.8841e-01 2.5945e+01
9.9661e-01 2.5811e+01
1.0048e+00 2.5660e+01
1.0130e+00 2.5508e+01
1.0212e+00 2.5381e+01
1.0294e+00 2.5181e+01
1.0376e+00 2.5052e+01
1.0458e+00 2.4912e+01
1.0540e+00 2.4746e+01
1.0622e+00 2.4581e+01
1.0704e+00 2.4461e+01
1.0786e+00 2.4357e+01
1.0868e+00 2.4235e+01
1.0950e+00 2.4115e+01
1.1032e+00 2.3985e+01
1.1115e+00 2.3878e+01
1.1197e+00 2.3773e+01
1.1279e+00 2.3639e+01
1.1361e+00 2.3496e+01
1.1443e+00 2.3389e+01
1.1525e+00 2.3263e+01
1.1607e+00 2.3135e+01
1.1689e+00 2.3028e+01
1.1771e+00 2.2910e+01
1.1853e+00 2.2824e+01
1.1935e+00 2.2694e+01
1.2017e+00 2.2561e+01
1.2099e+00 2.2417e+01
1.2181e+00 2.2365e+01
1.2263e+00 2.2256e+01
1.2345e+00 2.2160e+01
1.2427e+00 2.2105e+01
1.2509e+00 2.2000e+01
1.2591e+00 2.1881e+01
1.2673e+00 2.1752e+01
1.2755e+00 2.1665e+01
1.2837e+00 2.1550e+01
1.2919e+00 2.1419e+01
1.3001e+00 2.1358e+01
1.3083e+00 2.1281e+01
1.3165e+00 2.1166e+01
1.3247e+00 2.1079e+01
1.3329e+00 2.0979e+01
1.3411e+00 2.0903e+01
1.3493e+00 2.0801e+01
1.3575e+00 2.0675e+01
1.3657e+00 2.0602e+01
1.3739e+00 2.0504e+01
1.3821e+00 2.0442e+01
1.3904e+00 2.0354e+01
1.3986e+00 2.0265e+01
1.4068e+00 2.0184e+01
1.4150e+00 2.0120e+01
1.4232e+00 2.0048e+01
1.4314e+00 1.9967e+01
1.4396e+00 1.9857e+01
1.4478e+00 1.9770e+01
1.4560e+00 1.9717e+01
1.4642e+00 1.9645e+01
1.4724e+00 1.9592e+01
1.4806e+00 1.9502e+01
1.4888e+00 1.9433e+01
1.4970e+00 1.9353e+01
1.5052e+00 1.9258e+01
1.5134e+00 1.9197e+01
1.5216e+00 1.9124e+01
1.5298e+00 1.9045e+01
1.5380e+00 1.8993e+01
1.5462e+00 1.8930e+01
1.5544e+00 1.8886e+01
1.5626e+00 1.8831e+01
1.5708e+00 1.8755e+01
1.5790e+00 1.8659e+01
1.5872e+00 1.8625e+01
1.5954e+00 1.8531e+01
1.6036e+00 1.8459e+01
1.6118e+00 1.8406e+01
1.6200e+00 1.8370e+01
1.6282e+00 1.8288e+01
1.6364e+00 1.8203e+01
1.6446e+00 1.8141e+01
1.6529e+00 1.8087e+01
1.6611e+00 1.8040e+01
1.6693e+00 1.7981e+01
1.6775e+00 1.7916e+01
1.6857e+00 1.7890e+01
1.6939e+00 1.7832e+01
1.7021e+00 1.7773e+01
1.7103e+00 1.7719e+01
1.7185e+00 1.7676e+01
1.7267e+00 1.7589e+01
1.7349e+00 1.7556e+01
1.7431e+00 1.7510e+01
1.7513e+00 1.7457e+01
1.7595e+00 1.7396e+01
1.7677e+00 1.7322e+01
1.7759e+00 1.7255e+01
1.7841e+00 1.7209e+01
1.7923e+00 1.7155e+01
1.8005e+00 1.7108e+01
1.8087e+00 1.7053e+01
1.8169e+00 1.6997e+01
1.8251e+00 1.6977e+01
1.8333e+00 1.6910e+01
1.8415e+00 1.6850e+01
1.8497e+00 1.6791e+01
1.8579e+00 1.6759e+01
1.8661e+00 1.6701e+01
1.8743e+00 1.6645e+01
1.8825e+00 1.6601e+01
1.8908e+00 1.6569e+01
1.8990e+00 1.6524e+01
1.9072e+00 1.6492e+01
1.9154e+00 1.6441e+01
1.9236e+00 1.6371e+01
1.9318e+00 1.6335e+01
1.9400e+00 1.6301e+01
1.9482e+00 1.6230e+01
1.9564e+00 1.6195e+01
1.9646e+00 1.6163e+01
1.9728e+00 1.6125e+01
1.9810e+00 1.6079e+01
1.9892e+00 1.6036e+01
1.9974e+00 1.5994e+01
2.0056e+00 1.5960e+01
2.0138e+00 1.5920e+01
2.0220e+00 1.5872e+01
2.0302e+00 1.5828e+01
2.0384e+00 1.5797e+01
2.0466e+00 1.5771e+01
2.0548e+00 1.5714e+01
2.0630e+00 1.5685e+01
2.0712e+00 1.5649e+01
2.0794e+00 1.5601e+01
2.0876e+00 1.5531e+01
2.0958e+00 1.5506e+01
2.1040e+00 1.5460e+01
2.1123e+00 1.5427e+01
2.1205e+00 1.5382e+01
2.1287e+00 1.5346e+01
2.1369e+00 1.5324e+01
2.1451e+00 1.5275e+01
2.1533e+00 1.5255e+01
2.1615e+00 1.5216e+01
2.1697e+00 1.5173e+01
2.1779e+00 1.5165e+01
2.1861e+00 1.5144e+01
2.1943e+00 1.5127e+01
2.2025e+00 1.5066e+01
2.2107e+00 1.5006e+01
2.2189e+00 1.4970e+01
2.2271e+00 1.4949e+01
2.2353e+00 1.4921e+01
2.2435e+00 1.4875e+01
2.2517e+00 1.4856e+01
2.2599e+00 1.4830e+01
2.2681e+00 1.4794e+01
2.2763e+00 1.4770e+01
2.2845e+00 1.4759e+01
2.2927e+00 1.4733e+01
2.3009e+00 1.4670e+01
2.3091e+00 1.4613e+01
2.3174e+00 1.4579e+01
2.3256e+00 1.4560e+01
2.3338e+00 1.4538e+01
2.3420e+00 1.4522e+01
2.3502e+00 1.4459e+01
2.3584e+00 1.4426e+01
2.3666e+00 1.4414e+01
2.3748e+00 1.4383e+01
2.3830e+00 1.4362e+01
2.3912e+00 1.4341e+01
2.3994e+00 1.4324e+01
2.4076e+00 1.4283e+01
2.4158e+00 1.4262e+01
2.4240e+00 1.4239e+01
2.4322e+00 1.4194e+01
2.4404e+00 1.4162e+01
2.4486e+00 1.4115e+01
2.4568e+00 1.4086e+01
2.4650e+00 1.4083e+01
2.4732e+00 1.4045e+01
2.4814e+00 1.4032e+01
2.4896e+00 1.4001e+01
2.4978e+00 1.3963e+01
2.5061e+00 1.3935e+01
2.5143e+00 1.3916e+01
2.5225e+00 1.3894e+01
2.5307e+00 1.3880e+01
2.5389e+00 1.3848e+01
2.5471e+00 1.3809e+01
2.5553e+00 1.3773e+01
2.5635e+00 1.3747e+01
2.5717e+00 1.3735e+01
2.5799e+00 1.3704e+01
2.5881e+00 1.3650e+01
2.5963e+00 1.3633e+01
2.6045e+00 1.3616e+01
2.6127e+00 1.3596e+01
2.6209e+00 1.3583e+01
2.6291e+00 1.3542e+01
2.6373e+00 1.3520e+01
2.6455e+00 1.3497e+01
2.6537e+00 1.3476e+01
2.6619e+00 1.3434e+01
2.6701e+00 1.3427e+01
2.6783e+00 1.3420e+01
2.6866e+00 1.3399e+01
2.6948e+00 1.3389e+01
2.7030e+00 1.3351e+01
2.7112e+00 1.3333e+01
2.7194e+00 1.3320e+01
2.7276e+00 1.3287e+01
2.7358e+00 1.3275e+01
2.7440e+00 1.3245e+01
2.7522e+00 1.3227e+01
2.7604e+00 1.3205e+01
2.7686e+00 1.3150e+01
2.7768e+00 1.3131e+01
2.7850e+00 1.3116e+01
2.7932e+00 1.3117e+01
2.8014e+00 1.3085e+01
2.8096e+00 1.3060e+01
2.8178e+00 1.3050e+01
2.8260e+00 1.3025e+01
2.8342e+00 1.3005e+01
2.8424e+00 1.2989e+01
2.8506e+00 1.2987e+01
2.8589e+00 1.2964e+01
2.8671e+00 1.2959e+01
2.8753e+00 1.2931e+01
2.8835e+00 1.2921e+01
2.8917e+00 1.2887e+01
2.8999e+00 1.2864e+01
2.9081e+00 1.2843e+01
2.9163e+00 1.2821e+01
2.9245e+00 1.2803e+01
2.9327e+00 1.2794e+01
2.9409e+00 1.2765e+01
2.9491e+00 1.2729e+01
2.9573e+00 1.2729e+01
2.9655e+00 1.2715e+01
2.9737e+00 1.2702e+01
2.9819e+00 1.2668e+01
2.9901e+00 1.2635e+01
2.9983e+00 1.2642e+01
3.0065e+00 1.2618e+01
3.0148e+00 1.2602e+01
3.0230e+00 1.2598e+01
3.0312e+00 1.2569e+01
3.0394e+00 1.2542e+01
3.0476e+00 1.2523e+01
3.0558e+00 1.2515e+01
3.0640e+00 1.2489e+01
3.0722e+00 1.2484e+01
3.0804e+00 1.2465e+01
3.0886e+00 1.2458e+01
3.0968e+00 1.2424e+01
3.1050e+00 1.2408e+01
3.1132e+00 1.2413e+01
3.1214e+00 1.2385e+01
3.1296e+00 1.2385e+01
3.1378e+00 1.2366e+01
3.1460e+00 1.2343e+01
3.1542e+00 1.2319e+01
3.1624e+00 1.2305e+01
3.1707e+00 1.2301e+01
3.1789e+00 1.2275e+01
3.1871e+00 1.2264e+01
3.1953e+00 1.2251e+01
3.2035e+00 1.2238e+01
3.2117e+00 1.2235e+01
3.2199e+00 1.2205e+01
3.2281e+00 1.2189e+01
3.2363e+00 1.2189e+01
3.2445e+00 1.2176e+01
3.2527e+00 1.2156e+01
3.2609e+00 1.2170e+01
3.2691e+00 1.2169e+01
3.2773e+00 1.2217e+01
3.2855e+00 1.2252e+01
3.2937e+00 1.2251e+01
3.3019e+00 1.2231e+01
3.3102e+00 1.2160e+01
3.3184e+00 1.2100e+01
3.3266e+00 1.2054e+01
3.3348e+00 1.2016e+01
3.3430e+00 1.1995e+01
3.3512e+00 1.1991e+01
3.3594e+00 1.1977e+01
3.3676e+00 1.1961e+01
3.3758e+00 1.1925e+01
3.3840e+00 1.1910e+01
3.3922e+00 1.1895e+01
3.4004e+00 1.1886e+01
3.4086e+00 1.1866e+01
3.4168e+00 1.1840e+01
3.4250e+00 1.1837e+01
3.4332e+00 1.1836e+01
3.4414e+00 1.1817e+01
3.4497e+00 1.1803e+01
3.4579e+00 1.1801e+01
3.4661e+00 1.1781e+01
3.4743e+00 1.1779e+01
3.4825e+00 1.1761e+01
3.4907e+00 1.1755e+01
3.4989e+00 1.1750e+01
3.5071e+00 1.1735e+01
3.5153e+00 1.1728e+01
3.5235e+00 1.1701e+01
3.5317e+00 1.1688e+01
3.5399e+00 1.1671e+01
3.5481e+00 1.1659e+01
3.5563e+00 1.1634e+01
3.5645e+00 1.1633e+01
3.5727e+00 1.1616e+01
3.5810e+00 1.1612e+01
3.5892e+00 1.1624e+01
3.5974e+00 1.1597e+01
3.6056e+00 1.1594e+01
3.6138e+00 1.1581e+01
3.6220e+00 1.1557e+01
3.6302e+00 1.1542e+01
3.6384e+00 1.1529e+01
3.6466e+00 1.1519e+01
3.6548e+00 1.1501e+01
3.6630e+00 1.1475e+01
3.6712e+00 1.1484e+01
3.6794e+00 1.1469e+01
3.6876e+00 1.1464e+01
3.6958e+00 1.1466e+01
3.7041e+00 1.1455e+01
3.7123e+00 1.1441e+01
3.7205e+00 1.1438e+01
3.7287e+00 1.1418e+01
3.7369e+00 1.1404e+01
3.7451e+00 1.1385e+01
3.7533e+00 1.1383e+01
3.7615e+00 1.1375e+01
3.7697e+00 1.1372e+01
3.7779e+00 1.1374e+01
3.7861e+00 1.1380e+01
3.7943e+00 1.1374e+01
3.8025e+00 1.1386e+01
3.8107e+00 1.1369e+01
3.8190e+00 1.1350e+01
3.8272e+00 1.1305e+01
3.8354e+00 1.1275e+01
3.8436e+00 1.1282e+01
3.8518e+00 1.1267e+01
3.8600e+00 1.1264e+01
3.8682e+00 1.1267e+01
3.8764e+00 1.1253e+01
3.8846e+00 1.1236e+01
3.8928e+00 1.1225e+01
3.9010e+00 1.1221e+01
3.9092e+00 1.1226e+01
3.9174e+00 1.1216e+01
3.9256e+00 1.1196e+01
3.9339e+00 1.1194e+01
3.9421e+00 1.1188e+01
3.9503e+00 1.1156e+01
3.9585e+00 1.1143e+01
3.9667e+00 1.1143e+01
3.9749e+00 1.1125e+01
3.9831e+00 1.1133e+01
3.9913e+00 1.1128e+01
3.9995e+00 1.1127e+01
4.0077e+00 1.1127e+01
4.0159e+00 1.1095e+01
4.0241e+00 1.1105e+01
4.0323e+00 1.1090e+01
4.0405e+00 1.1079e+01
4.0488e+00 1.1081e+01
4.0570e+00 1.1064e+01
4.0652e+00 1.1052e+01
4.0734e+00 1.1036e+01
4.0816e+00 1.1024e+01
4.0898e+00 1.1021e+01
4.0980e+00 1.0998e+01
4.1062e+00 1.0997e+01
4.1144e+00 1.1005e+01
4.1226e+00 1.0990e+01
4.1308e+00 1.0968e+01
4.1390e+00 1.0958e+01
4.1472e+00 1.0950e+01
4.1555e+00 1.0940e+01
4.1637e+00 1.0933e+01
4.1719e+00 1.0933e+01
4.1801e+00 1.0933e+01
4.1883e+00 1.0929e+01
4.1965e+00 1.0912e+01
4.2047e+00 1.0907e+01
4.2129e+00 1.0901e+01
4.2211e+00 1.0895e+01
4.2293e+00 1.0880e+01
4.2375e+00 1.0876e+01
4.2457e+00 1.0864e+01
4.2540e+00 1.0859e+01
4.2622e+00 1.0846e+01
4.2704e+00 1.0842e+01
4.2786e+00 1.0825e+01
4.2868e+00 1.0820e+01
4.2950e+00 1.0828e+01
4.3032e+00 1.0804e+01
4.3114e+00 1.0813e+01
4.3196e+00 1.0792e+01
4.3278e+00 1.0776e+01
4.3360e+00 1.0771e+01
4.3442e+00 1.0768e+01
4.3524e+00 1.0751e+01
4.3607e+00 1.0759e+01
4.3689e+00 1.0748e+01
4.3771e+00 1.0744e+01
4.3853e+00 1.0744e+01
4.3935e+00 1.0730e+01
4.4017e+00 1.0733e+01
4.4099e+00 1.0736e+01
4.4181e+00 1.0724e+01
4.4263e+00 1.0707e+01
4.4345e+00 1.0706e+01
4.4427e+00 1.0706e+01
4.4510e+00 1.0690e+01
4.4592e+00 1.0669e+01
4.4674e+00 1.0665e+01
4.4756e+00 1.0674e+01
4.4838e+00 1.0671e+01
4.4920e+00 1.0662e+01
4.5002e+00 1.0653e+01
4.5084e+00 1.0639e+01
4.5166e+00 1.0643e+01
4.5248e+00 1.0635e+01
4.5330e+00 1.0629e+01
4.5412e+00 1.0623e+01
4.5495e+00 1.0613e+01
4.5577e+00 1.0593e+01
4.5659e+00 1.0595e+01
4.5741e+00 1.0589e+01
4.5823e+00 1.0581e+01
4.5905e+00 1.0585e+01
4.5987e+00 1.0576e+01
4.6069e+00 1.0562e+01
4.6151e+00 1.0570e+01
4.6233e+00 1.0553e+01
4.6315e+00 1.0547e+01
4.6398e+00 1.0540e+01
4.6480e+00 1.0530e+01
4.6562e+00 1.0512e+01
4.6644e+00 1.0514e+01
4.6726e+00 1.0507e+01
4.6808e+00 1.0500e+01
4.6890e+00 1.0501e+01
4.6972e+00 1.0511e+01
4.7054e+00 1.0494e+01
4.7136e+00 1.0486e+01
4.7218e+00 1.0484e+01
4.7301e+00 1.0476e+01
4.7383e+00 1.0474e+01
4.7465e+00 1.0469e+01
4.7547e+00 1.0470e+01
4.7629e+00 1.0463e+01
4.7711e+00 1.0453e+01
4.7793e+00 1.0450e+01
4.7875e+00 1.0437e+01
4.7957e+00 1.0422e+01
4.8039e+00 1.0428e+01
4.8122e+00 1.0421e+01
4.8204e+00 1.0417e+01
4.8286e+00 1.0405e+01
4.8368e+00 1.0395e+01
4.8450e+00 1.0386e+01
4.8532e+00 1.0394e+01
4.8614e+00 1.0380e+01
4.8696e+00 1.0385e+01
4.8778e+00 1.0371e+01
4.8860e+00 1.0365e+01
4.8943e+00 1.0364e+01
4.9025e+00 1.0362e+01
4.9107e+00 1.0358e+01
4.9189e+00 1.0352e+01
4.9271e+00 1.0345e+01
4.9353e+00 1.0330e+01
4.9435e+00 1.0323e+01
4.9517e+00 1.0339e+01
4.9599e+00 1.0321e+01
4.9681e+00 1.0318e+01
4.9764e+00 1.0328e+01
4.9846e+00 1.0308e+01
4.9928e+00 1.0304e+01
5.0010e+00 1.0306e+01
5.0092e+00 1.0293e+01
5.0174e+00 1.0278e+01
5.0256e+00 1.0284e+01
5.0338e+00 1.0284e+01
5.0420e+00 1.0279e+01
5.0502e+00 1.0268e+01
5.0585e+00 1.0273e+01
5.0667e+00 1.0243e+01
5.0749e+00 1.0236e+01
5.0831e+00 1.0245e+01
5.0913e+00 1.0239e+01
5.0995e+00 1.0238e+01
5.1077e+00 1.0228e+01
5.1159e+00 1.0213e+01
5.1241e+00 1.0216e+01
5.1324e+00 1.0218e+01
5.1406e+00 1.0213e+01
5.1488e+00 1.0200e+01
5.1570e+00 1.0193e+01
5.1652e+00 1.0180e+01
5.1734e+00 1.0176e+01
5.1816e+00 1.0184e+01
5.1898e+00 1.0183e+01
5.1980e+00 1.0188e+01
5.2062e+00 1.0180e+01
5.2145e+00 1.0166e+01
5.2227e+00 1.0163e+01
5.2309e+00 1.0151e+01
5.2391e+00 1.0135e+01
5.2473e+00 1.0145e+01
5.2555e+00 1.0138e+01
5.2637e+00 1.0130e+01
5.2719e+00 1.0125e+01
5.2801e+00 1.0134e+01
5.2884e+00 1.0135e+01
5.2966e+00 1.0126e+01
5.3048e+00 1.0117e+01
5.3130e+00 1.0123e+01
5.3212e+00 1.0119e+01
5.3294e+00 1.0122e+01
5.3376e+00 1.0117e+01
5.3458e+00 1.0123e+01
5.3541e+00 1.0146e+01
5.3623e+00 1.0175e+01
5.3705e+00 1.0212e+01
5.3787e+00 1.0223e+01
5.3869e+00 1.0220e+01
5.3951e+00 1.0180e+01
5.4033e+00 1.0141e+01
5.4115e+00 1.0120e+01
5.4197e+00 1.0101e+01
5.4280e+00 1.0079e+01
5.4362e+00 1.0066e+01
5.4444e+00 1.0066e+01
5.4526e+00 1.0071e+01
5.4608e+00 1.0074e+01
5.4690e+00 1.0071e+01
5.4772e+00 1.0063e+01
5.4854e+00 1.0058e+01
5.4936e+00 1.0061e+01
5.5019e+00 1.0050e+01
5.5101e+00 1.0053e+01
5.5183e+00 1.0064e+01
5.5265e+00 1.0061e+01
5.5347e+00 1.0051e+01
5.5429e+00 1.0052e+01
5.5511e+00 1.0041e+01
5.5593e+00 1.0049e+01
5.5676e+00 1.0041e+01
5.5758e+00 1.0037e+01
5.5840e+00 1.0030e+01
5.5922e+00 1.0019e+01
5.6004e+00 1.0027e+01
5.6086e+00 1.0034e+01
5.6168e+00 1.0018e+01
5.6250e+00 1.0012e+01
5.6333e+00 1.0007e+01
5.6415e+00 1.0005e+01
5.6497e+00 1.0000e+01
5.6579e+00 9.9862e+00
5.6661e+00 1.0000e+01
5.6743e+00 9.9868e+00
5.6825e+00 9.9876e+00
5.6907e+00 9.9816e+00
5.6990e+00 9.9742e+00
5.7072e+00 9.9728e+00
5.7154e+00 9.9732e+00
5.7236e+00 9.9827e+00
5.7318e+00 9.9840e+00
5.7400e+00 9.9765e+00
5.7482e+00 9.9715e+00
5.7564e+00 9.9661e+00
5.7647e+00 9.9606e+00
5.7729e+00 9.9541e+00
5.7811e+00 9.9478e+00
5.7893e+00 9.9483e+00
5.7975e+00 9.9531e+00
5.8057e+00 9.9450e+00
5.8139e+00 9.9496e+00
5.8221e+00 9.9416e+00
5.8304e+00 9.9369e+00
5.8386e+00 9.9329e+00
5.8468e+00 9.9310e+00
5.8550e+00 9.9326e+00
5.8632e+00 9.9294e+00
5.8714e+00 9.9163e+00
5.8796e+00 9.9217e+00
5.8879e+00 9.9140e+00
5.8961e+00 9.9090e+00
5.9043e+00 9.9105e+00
5.9125e+00 9.9061e+00
5.9207e+00 9.9084e+00
5.9289e+00 9.8975e+00
5.9371e+00 9.8799e+00
5.9453e+00 9.8855e+00
5.9536e+00 9.8854e+00
5.9618e+00 9.8863e+00
5.9700e+00 9.8929e+00
5.9782e+00 9.8841e+00
5.9864e+00 9.8741e+00
5.9946e+00 9.8833e+00
6.0028e+00 9.8815e+00
6.0111e+00 9.8657e+00
6.0193e+00 9.8601e+00
6.0275e+00 9.8648e+00
6.0357e+00 9.8579e+00
6.0439e+00 9.8661e+00
6.0521e+00 9.8705e+00
6.0603e+00 9.8631e+00
6.0686e+00 9.8595e+00
6.0768e+00 9.8475e+00
6.0850e+00 9.8336e+00
6.0932e+00 9.8368e+00
6.1014e+00 9.8321e+00
6.1096e+00 9.8229e+00
6.1178e+00 9.8315e+00
6.1261e+00 9.8341e+00
6.1343e+00 9.8381e+00
6.1425e+00 9.8359e+00
6.1507e+00 9.8288e+00
6.1589e+00 9.8315e+00
6.1671e+00 9.8232e+00
6.1753e+00 9.8074e+00
6.1836e+00 9.8100e+00
6.1918e+00 9.8174e+00
6.2000e+00 9.8107e+00
6.2082e+00 9.8030e+00
6.2164e+00 9.8161e+00
6.2246e+00 9.8125e+00
6.2328e+00 9.8064e+00
6.2411e+00 9.7924e+00
6.2493e+00 9.7802e+00
6.2575e+00 9.7841e+00
6.2657e+00 9.7919e+00
6.2739e+00 9.7961e+00
6.2821e+00 9.8058e+00
6.2903e+00 9.8265e+00
6.2986e+00 9.8540e+00
6.3068e+00 9.8778e+00
6.3150e+00 9.8698e+00
6.3232e+00 9.8446e+00
6.3314e+00 9.8219e+00
6.3396e+00 9.8005e+00
6.3478e+00 9.7757e+00
6.3561e+00 9.7515e+00
6.3643e+00 9.7531e+00
6.3725e+00 9.7506e+00
6.3807e+00 9.7472e+00
6.3889e+00 9.7533e+00
6.3971e+00 9.7551e+00
6.4054e+00 9.7395e+00
6.4136e+00 9.7328e+00
6.4218e+00 9.7355e+00
6.4300e+00 9.7275e+00
6.4382e+00 9.7309e+00
6.4464e+00 9.7278e+00
6.4546e+00 9.7372e+00
6.4629e+00 9.7291e+00
6.4711e+00 9.7295e+00
6.4793e+00 9.7251e+00
6.4875e+00 9.7182e+00
6.4957e+00 9.7206e+00
6.5039e+00 9.7047e+00
6.5122e+00 9.6973e+00
6.5204e+00 9.7080e+00
6.5286e+00 9.7158e+00
6.5368e+00 9.6978e+00
6.5450e+00 9.6944e+00
6.5532e+00 9.6971e+00
6.5614e+00 9.6994e+00
6.5697e+00 9.6980e+00
6.5779e+00 9.6971e+00
6.5861e+00 9.7004e+00
6.5943e+00 9.7036e+00
6.6025e+00 9.6917e+00
6.6107e+00 9.6867e+00
6.6190e+00 9.6774e+00
6.6272e+00 9.6686e+00
6.6354e+00 9.6621e+00
6.6436e+00 9.6599e+00
6.6518e+00 9.6586e+00
6.6600e+00 9.6495e+00
6.6683e+00 9.6589e+00
6.6765e+00 9.6659e+00
6.6847e+00 9.6610e+00
6.6929e+00 9.6648e+00
6.7011e+00 9.6478e+00
6.7093e+00 9.6544e+00
6.7176e+00 9.6487e+00
6.7258e+00 9.6479e+00
6.7340e+00 9.6380e+00
6.7422e+00 9.6407e+00
6.7504e+00 9.6308e+00
6.7586e+00 9.6351e+00
6.7669e+00 9.6316e+00
6.7751e+00 9.6275e+00
6.7833e+00 9.6163e+00
6.7915e+00 9.6303e+00
6.7997e+00 9.6307e+00
6.8079e+00 9.6204e+00
6.8162e+00 9.6221e+00
6.8244e+00 9.6264e+00
6.8326e+00 9.6209e+00
6.8408e+00 9.6135e+00
6.8490e+00 9.6038e+00
6.8572e+00 9.6036e+00
6.8655e+00 9.6050e+00
6.8737e+00 9.5992e+00
6.8819e+00 9.5983e+00
6.8901e+00 9.6045e+00
6.8983e+00 9.5996e+00
6.9065e+00 9.5853e+00
6.9148e+00 9.5808e+00
6.9230e+00 9.5857e+00
6.9312e+00 9.5746e+00
6.9394e+00 9.5825e+00
6.9476e+00 9.5671e+00
6.9559e+00 9.5564e+00
6.9641e+00 9.5659e+00
6.9723e+00 9.5669e+00
6.9805e+00 9.5565e+00
6.9887e+00 9.5606e+00
6.9969e+00 9.5535e+00
7.0052e+00 9.5547e+00
7.0134e+00 9.5643e+00
7.0216e+00 9.5673e+00
7.0298e+00 9.5540e+00
7.0380e+00 9.5535e+00
7.0462e+00 9.5483e+00
7.0545e+00 9.5403e+00
7.0627e+00 9.5368e+00
7.0709e+00 9.5344e+00
7.0791e+00 9.5403e+00
7.0873e+00 9.5350e+00
7.0956e+00 9.5426e+00
7.1038e+00 9.5371e+00
7.1120e+00 9.5264e+00
7.1202e+00 9.5245e+00
7.1284e+00 9.5394e+00
7.1366e+00 9.5236e+00
7.1449e+00 9.5341e+00
7.1531e+00 9.5215e+00
7.1613e+00 9.5183e+00
7.1695e+00 9.5067e+00
7.1777e+00 9.4945e+00
7.1860e+00 9.4882e+00
7.1942e+00 9.4827e+00
7.2024e+00 9.4837e+00
7.2106e+00 9.4783e+00
7.2188e+00 9.4843e+00
7.2271e+00 9.4840e+00
7.2353e+00 9.4697e+00
7.2435e+00 9.4562e+00
7.2517e+00 9.4607e+00
7.2599e+00 9.4517e+00
7.2681e+00 9.4350e+00
7.2764e+00 9.4439e+00
7.2846e+00 9.4372e+00
7.2928e+00 9.4227e+00
7.3010e+00 9.4244e+00
7.3092e+00 9.4153e+00
7.3175e+00 9.4267e+00
7.3257e+00 9.4323e+00
7.3339e+00 9.4275e+00
7.3421e+00 9.4156e+00
7.3503e+00 9.4200e+00
7.3586e+00 9.4059e+00
7.3668e+00 9.3999e+00
7.3750e+00 9.3978e+00
7.3832e+00 9.4017e+00
7.3914e+00 9.3949e+00
7.3997e+00 9.3965e+00
7.4079e+00 9.3972e+00
7.4161e+00 9.3949e+00
7.4243e+00 9.3927e+00
7.4325e+00 9.3841e+00
7.4408e+00 9.3962e+00
7.4490e+00 9.3867e+00
7.4572e+00 9.3936e+00
7.4654e+00 9.3825e+00
7.4736e+00 9.3746e+00
7.4819e+00 9.3730e+00
7.4901e+00 9.3708e+00
7.4983e+00 9.3560e+00
7.5065e+00 9.3590e+00
7.5147e+00 9.3602e+00
7.5230e+00 9.3698e+00
7.5312e+00 9.3673e+00
7.5394e+00 9.3596e+00
7.5476e+00 9.3615e+00
7.5558e+00 9.3583e+00
7.5641e+00 9.3520e+00
7.5723e+00 9.3432e+00
7.5805e+00 9.3570e+00
7.5887e+00 9.3445e+00
7.5969e+00 9.3476e+00
7.6052e+00 9.3738e+00
7.6134e+00 9.3697e+00
7.6216e+00 9.3602e+00
7.6298e+00 9.3543e+00
7.6380e+00 9.3446e+00
7.6463e+00 9.3299e+00
7.6545e+00 9.3329e+00
7.6627e+00 9.3218e+00
7.6709e+00 9.3143e+00
7.6791e+00 9.3188e+00
7.6874e+00 9.3175e+00
7.6956e+00 9.3232e+00
7.7038e+00 9.3143e+00
7.7120e+00 9.3118e+00
7.7202e+00 9.3151e+00
7.7285e+00 9.3154e+00
7.7367e+00 9.3186e+00
7.7449e+00 9.3166e+00
7.7531e+00 9.3088e+00
7.7614e+00 9.3094e+00
7.7696e+00 9.3000e+00
7.7778e+00 9.2976e+00
7.7860e+00 9.2954e+00
7.7942e+00 9.2901e+00
7.8025e+00 9.2990e+00
7.8107e+00 9.2905e+00
7.8189e+00 9.2901e+00
7.8271e+00 9.2908e+00
7.8353e+00 9.2904e+00
7.8436e+00 9.2796e+00
7.8518e+00 9.2756e+00
7.8600e+00 9.2779e+00
7.8682e+00 9.2724e+00
7.8765e+00 9.2754e+00
7.8847e+00 9.2733e+00
7.8929e+00 9.2720e+00
7.9011e+00 9.2729e+00
7.9093e+00 9.2736e+00
7.9176e+00 9.2656e+00
7.9258e+00 9.2667e+00
7.9340e+00 9.2670e+00
7.9422e+00 9.2633e+00
7.9505e+00 9.2659e+00
7.9587e+00 9.2591e+00
7.9669e+00 9.2438e+00
7.9751e+00 9.2531e+00
7.9833e+00 9.2507e+00
7.9916e+00 9.2599e+00
7.9998e+00 9.2498e+00
8.0080e+00 9.2442e+00
8.0162e+00 9.2351e+00
8.0245e+00 9.2338e+00
8.0327e+00 9.2374e+00
8.0409e+00 9.2362e+00
8.0491e+00 9.2363e+00
8.0574e+00 9.2232e+00
8.0656e+00 9.2154e+00
8.0738e+00 9.2170e+00
8.0820e+00 9.2183e+00
8.0902e+00 9.2121e+00
8.0985e+00 9.2105e+00
8.1067e+00 9.2230e+00
8.1149e+00 9.2131e+00
8.1231e+00 9.2113e+00
8.1314e+00 9.2203e+00
8.1396e+00 9.2080e+00
8.1478e+00 9.2083e+00
8.1560e+00 9.2057e+00
8.1642e+00 9.2106e+00
8.1725e+00 9.2078e+00
8.1807e+00 9.2042e+00
8.1889e+00 9.1835e+00
8.1971e+00 9.1943e+00
8.2054e+00 9.1952e+00
8.2136e+00 9.1817e+00
8.2218e+00 9.1835e+00
8.2300e+00 9.1837e+00
8.2383e+00 9.1770e+00
8.2465e+00 9.1922e+00
8.2547e+00 9.1952e+00
8.2629e+00 9.1952e+00
8.2712e+00 9.2005e+00
8.2794e+00 9.2074e+00
8.2876e+00 9.2188e+00
8.2958e+00 9.2132e+00
8.3041e+00 9.2086e+00
8.3123e+00 9.2072e+00
8.3205e+00 9.1958e+00
8.3287e+00 9.1963e+00
8.3369e+00 9.1908e+00
8.3452e+00 9.1828e+00
8.3534e+00 9.1670e+00
8.3616e+00 9.1656e+00
8.3698e+00 9.1568e+00
8.3781e+00 9.1536e+00
8.3863e+00 9.1601e+00
8.3945e+00 9.1465e+00
8.4027e+00 9.1524e+00
8.4110e+00 9.1535e+00
8.4192e+00 9.1439e+00
8.4274e+00 9.1496e+00
8.4356e+00 9.1530e+00
8.4439e+00 9.1442e+00
8.4521e+00 9.1479e+00
8.4603e+00 9.1423e+00
8.4685e+00 9.1448e+00
8.4768e+00 9.1421e+00
8.4850e+00 9.1360e+00
8.4932e+00 9.1433e+00
8.5014e+00 9.1493e+00
8.5097e+00 9.1515e+00
8.5179e+00 9.1538e+00
8.5261e+00 9.1513e+00
8.5343e+00 9.1489e+00
8.5426e+00 9.1379e+00
8.5508e+00 9.1318e+00
8.5590e+00 9.1142e+00
8.5672e+00 9.1162e+00
8.5755e+00 9.1137e+00
8.5837e+00 9.1152e+00
8.5919e+00 9.1117e+00
8.6001e+00 9.1133e+00
8.6084e+00 9.1126e+00
8.6166e+00 9.1028e+00
8.6248e+00 9.0985e+00
8.6330e+00 9.1030e+00
8.6413e+00 9.1050e+00
8.6495e+00 9.0971e+00
8.6577e+00 9.0973e+00
8.6660e+00 9.1009e+00
8.6742e+00 9.0966e+00
8.6824e+00 9.0940e+00
8.6906e+00 9.0948e+00
8.6989e+00 9.0971e+00
8.7071e+00 9.1034e+00
8.7153e+00 9.0951e+00
8.7235e+00 9.0968e+00
8.7318e+00 9.0921e+00
8.7400e+00 9.0911e+00
8.7482e+00 9.0928e+00
8.7564e+00 9.0914e+00
8.7647e+00 9.0826e+00
8.7729e+00 9.0913e+00
8.7811e+00 9.0887e+00
8.7893e+00 9.0919e+00
8.7976e+00 9.0960e+00
8.8058e+00 9.0891e+00
8.8140e+00 9.1034e+00
8.8223e+00 9.0986e+00
8.8305e+00 9.1008e+00
8.8387e+00 9.0975e+00
8.8469e+00 9.0954e+00
8.8552e+00 9.0996e+00
8.8634e+00 9.0911e+00
8.8716e+00 9.0859e+00
8.8798e+00 9.0849e+00
8.8881e+00 9.0915e+00
8.8963e+00 9.0864e+00
8.9045e+00 9.0925e+00
8.9128e+00 9.0882e+00
8.9210e+00 9.0873e+00
8.9292e+00 9.0913e+00
8.9374e+00 9.0875e+00
8.9457e+00 9.0884e+00
8.9539e+00 9.0862e+00
8.9621e+00 9.0933e+00
8.9703e+00 9.0958e+00
8.9786e+00 9.0923e+00
8.9868e+00 9.0893e+00
8.9950e+00 9.1009e+00
9.0033e+00 9.1001e+00
9.0115e+00 9.0964e+00
9.0197e+00 9.0926e+00
9.0279e+00 9.0984e+00
9.0362e+00 9.1050e+00
9.0444e+00 9.0979e+00
9.0526e+00 9.0924e+00
9.0609e+00 9.0918e+00
9.0691e+00 9.0907e+00
9.0773e+00 9.0864e+00
9.0855e+00 9.0914e+00
9.0938e+00 9.0930e+00
9.1020e+00 9.0929e+00
9.1102e+00 9.0808e+00
9.1184e+00 9.1012e+00
9.1267e+00 9.0998e+00
9.1349e+00 9.1089e+00
9.1431e+00 9.0969e+00
9.1514e+00 9.0942e+00
9.1596e+00 9.1105e+00
9.1678e+00 9.1025e+00
9.1760e+00 9.0955e+00
9.1843e+00 9.0980e+00
9.1925e+00 9.0951e+00
9.2007e+00 9.0890e+00
9.2090e+00 9.0850e+00
9.2172e+00 9.0865e+00
9.2254e+00 9.0841e+00
9.2337e+00 9.0789e+00
9.2419e+00 9.0842e+00
9.2501e+00 9.0761e+00
9.2583e+00 9.0734e+00
9.2666e+00 9.0836e+00
9.2748e+00 9.0735e+00
9.2830e+00 9.0746e+00
9.2913e+00 9.0719e+00
9.2995e+00 9.0759e+00
9.3077e+00 9.0784e+00
9.3159e+00 9.0883e+00
9.3242e+00 9.0956e+00
9.3324e+00 9.0970e+00
9.3406e+00 9.0817e+00
9.3489e+00 9.0733e+00
9.3571e+00 9.0731e+00
9.3653e+00 9.0726e+00
9.3736e+00 9.0719e+00
9.3818e+00 9.0576e+00
9.3900e+00 9.0560e+00
9.3982e+00 9.0565e+00
9.4065e+00 9.0545e+00
9.4147e+00 9.0468e+00
9.4229e+00 9.0435e+00
9.4312e+00 9.0501e+00
9.4394e+00 9.0387e+00
9.4476e+00 9.0381e+00
9.4559e+00 9.0383e+00
9.4641e+00 9.0343e+00
9.4723e+00 9.0348e+00
9.4805e+00 9.0361e+00
9.4888e+00 9.0368e+00
9.4970e+00 9.0397e+00
9.5052e+00 9.0317e+00
9.5135e+00 9.0356e+00
9.5217e+00 9.0344e+00
9.5299e+00 9.0275e+00
9.5382e+00 9.0265e+00
9.5464e+00 9.0323e+00
9.5546e+00 9.0319e+00
9.5629e+00 9.0277e+00
9.5711e+00 9.0202e+00
9.5793e+00 9.0226e+00
9.5875e+00 9.0156e+00
9.5958e+00 9.0163e+00
9.6040e+00 9.0204e+00
9.6122e+00 9.0215e+00
9.6205e+00 9.0118e+00
9.6287e+00 9.0127e+00
9.6369e+00 9.0212e+00
9.6452e+00 9.0127e+00
9.6534e+00 9.0158e+00
9.6616e+00 9.0113e+00
9.6699e+00 9.0032e+00
9.6781e+00 9.0055e+00
9.6863e+00 9.0036e+00
9.6946e+00 8.9986e+00
9.7028e+00 8.9997e+00
9.7110e+00 8.9950e+00
9.7193e+00 8.9989e+00
9.7275e+00 9.0013e+00
9.7357e+00 8.9913e+00
9.7440e+00 8.9861e+00
9.7522e+00 8.9948e+00
9.7604e+00 8.9919e+00
9.7686e+00 8.9995e+00
9.7769e+00 8.9992e+00
9.7851e+00 8.9939e+00
9.7933e+00 9.0001e+00
9.8016e+00 8.9929e+00
9.8098e+00 8.9976e+00
9.8180e+00 8.9958e+00
9.8263e+00 8.9919e+00
9.8345e+00 8.9921e+00
9.8427e+00 8.9744e+00
9.8510e+00 8.9524e+00
9.8592e+00 8.9341e+00
9.8674e+00 8.9223e+00
9.8757e+00 8.9531e+00
9.8839e+00 8.9694e+00
9.8921e+00 8.9774e+00
9.9004e+00 8.9829e+00
9.9086e+00 8.9846e+00
9.9168e+00 8.9723e+00
9.9251e+00 8.9698e+00
9.9333e+00 8.9618e+00
9.9415e+00 8.9665e+00
9.9498e+00 8.9557e+00
9.9580e+00 8.9573e+00
9.9662e+00 8.9640e+00
9.9745e+00 8.9485e+00
9.9827e+00 8.9484e+00
9.9909e+00 8.9445e+00
9.9992e+00 8.9504e+00
1.0007e+01 8.9545e+00
1.0016e+01 8.9568e+00
1.0024e+01 8.9594e+00
1.0032e+01 8.9527e+00
1.0040e+01 8.9482e+00
1.0049e+01 8.9552e+00
1.0057e+01 8.9550e+00
1.0065e+01 8.9581e+00
1.0073e+01 8.9567e+00
1.0082e+01 8.9449e+00
1.0090e+01 8.9370e+00
1.0098e+01 8.9449e+00
1.0106e+01 8.9435e+00
1.0114e+01 8.9387e+00
1.0123e+01 8.9351e+00
1.0131e+01 8.9308e+00
1.0139e+01 8.9374e+00
1.0147e+01 8.9282e+00
1.0156e+01 8.9335e+00
1.0164e+01 8.9414e+00
1.0172e+01 8.9365e+00
1.0180e+01 8.9363e+00
1.0189e+01 8.9346e+00
1.0197e+01 8.9397e+00
1.0205e+01 8.9320e+00
1.0213e+01 8.9284e+00
1.0222e+01 8.9193e+00
1.0230e+01 8.9184e+00
1.0238e+01 8.9107e+00
1.0246e+01 8.9096e+00
1.0254e+01 8.9205e+00
1.0263e+01 8.9160e+00
1.0271e+01 8.9163e+00
1.0279e+01 8.9190e+00
1.0287e+01 8.9190e+00
1.0296e+01 8.9267e+00
1.0304e+01 8.9115e+00
1.0312e+01 8.9111e+00
1.0320e+01 8.9146e+00
1.0329e+01 8.9062e+00
1.0337e+01 8.9034e+00
1.0345e+01 8.9020e+00
1.0353e+01 8.8996e+00
1.0362e+01 8.9031e+00
1.0370e+01 8.8991e+00
1.0378e+01 8.8936e+00
1.0386e+01 8.9052e+00
1.0394e+01 8.9049e+00
1.0403e+01 8.9013e+00
1.0411e+01 8.9045e+00
1.0419e+01 8.9024e+00
1.0427e+01 8.8818e+00
1.0436e+01 8.8866e+00
1.0444e+01 8.8842e+00
1.0452e+01 8.8883e+00
1.0460e+01 8.8789e+00
1.0469e+01 8.8682e+00
1.0477e+01 8.8779e+00
1.0485e+01 8.8794e+00
1.0493e+01 8.8672e+00
1.0502e+01 8.8762e+00
1.0510e+01 8.8749e+00
1.0518e+01 8.8676e+00
1.0526e+01 8.8604e+00
1.0534e+01 8.8659e+00
1.0543e+01 8.8697e+00
1.0551e+01 8.8631e+00
1.0559e+01 8.8600e+00
1.0567e+01 8.8668e+00
1.0576e+01 8.8562e+00
1.0584e+01 8.8563e+00
1.0592e+01 8.8542e+00
1.0600e+01 8.8611e+00
1.0609e+01 8.8548e+00
1.0617e+01 8.8551e+00
1.0625e+01 8.8608e+00
1.0633e+01 8.8505e+00
1.0642e+01 8.8507e+00
1.0650e+01 8.8474e+00
1.0658e+01 8.8467e+00
1.0666e+01 8.8473e+00
1.0675e+01 8.8477e+00
1.0683e+01 8.8337e+00
1.0691e+01 8.8357e+00
1.0699e+01 8.8368e+00
1.0707e+01 8.8278e+00
1.0716e+01 8.8327e+00
1.0724e+01 8.8292e+00
1.0732e+01 8.8195e+00
1.0740e+01 8.8313e+00
1.0749e+01 8.8076e+00
1.0757e+01 8.7410e+00
1.0765e+01 8.7111e+00
1.0773e+01 8.6904e+00
1.0782e+01 8.6618e+00
1.0790e+01 8.6476e+00
1.0798e+01 8.6199e+00
1.0806e+01 8.5990e+00
1.0815e+01 8.5822e+00
1.0823e+01 8.5675e+00
1.0831e+01 8.5384e+00
1.0839e+01 8.5351e+00
1.0848e+01 8.5165e+00
1.0856e+01 8.5037e+00
1.0864e+01 8.4851e+00
1.0872e+01 8.4861e+00
1.0880e+01 8.4725e+00
1.0889e+01 8.4697e+00
1.0897e+01 8.4500e+00
1.0905e+01 8.4419e+00
1.0913e+01 8.4395e+00
1.0922e+01 8.4359e+00
1.0930e+01 8.4225e+00
1.0938e+01 8.4212e+00
1.0946e+01 8.4319e+00
1.0955e+01 8.4100e+00
1.0963e+01 8.4123e+00
1.0971e+01 8.4283e+00
1.0979e+01 8.4233e+00
1.0988e+01 8.4138e+00
1.0996e+01 8.4123e+00
1.1004e+01 8.4076e+00
1.1012e+01 8.4070e+00
1.1021e+01 8.3980e+00
1.1029e+01 8.3888e+00
1.1037e+01 8.3953e+00
1.1045e+01 8.3974e+00
1.1054e+01 8.3940e+00
1.1062e+01 8.3857e+00
1.1070e+01 8.3795e+00
1.1078e+01 8.3871e+00
1.1087e+01 8.3787e+00
1.1095e+01 8.3819e+00
1.1103e+01 8.3762e+00
1.1111e+01 8.3771e+00
1.1119e+01 8.3753e+00
1.1128e+01 8.3854e+00
1.1136e+01 8.3906e+00
1.1144e+01 8.3805e+00
1.1152e+01 8.3891e+00
1.1161e+01 8.3838e+00
1.1169e+01 8.3827e+00
1.1177e+01 8.3862e+00
1.1185e+01 8.3798e+00
1.1194e+01 8.3845e+00
1.1202e+01 8.3817e+00
1.1210e+01 8.3807e+00
1.1218e+01 8.3755e+00
1.1227e+01 8.3811e+00
1.1235e+01 8.3828e+00
1.1243e+01 8.3767e+00
1.1251e+01 8.3770e+00
1.1260e+01 8.3883e+00
1.1268e+01 8.3958e+00
1.1276e+01 8.3888e+00
1.1284e+01 8.3840e+00
1.1293e+01 8.3720e+00
1.1301e+01 8.3562e+00
1.1309e+01 8.3500e+00
1.1317e+01 8.3496e+00
1.1326e+01 8.3454e+00
1.1334e+01 8.3353e+00
1.1342e+01 8.3376e+00
1.1350e+01 8.3385e+00
1.1358e+01 8.3277e+00
1.1367e+01 8.3230e+00
1.1375e+01 8.3254e+00
1.1383e+01 8.3324e+00
1.1391e+01 8.3310e+00
1.1400e+01 8.3284e+00
1.1408e+01 8.3285e+00
1.1416e+01 8.3356e+00
1.1424e+01 8.3400e+00
1.1433e+01 8.3416e+00
1.1441e+01 8.3355e+00
1.1449e+01 8.3231e+00
1.1457e+01 8.3186e+00
1.1466e+01 8.3242e+00
1.1474e+01 8.3169e+00
1.1482e+01 8.3001e+00
1.1490e+01 8.3013e+00
1.1499e+01 8.3011e+00
1.1507e+01 8.3003e+00
1.1515e+01 8.2952e+00
1.1523e+01 8.2964e+00
1.1532e+01 8.2952e+00
1.1540e+01 8.2905e+00
1.1548e+01 8.2931e+00
1.1556e+01 8.2904e+00
1.1565e+01 8.2930e+00
1.1573e+01 8.2931e+00
1.1581e+01 8.2849e+00
1.1589e+01 8.2857e+00
1.1598e+01 8.2858e+00
1.1606e+01 8.2911e+00
1.1614e+01 8.2889e+00
1.1622e+01 8.2813e+00
1.1631e+01 8.2730e+00
1.1639e+01 8.2717e+00
1.1647e+01 8.2701e+00
1.1655e+01 8.2685e+00
1.1664e+01 8.2589e+00
1.1672e+01 8.2571e+00
1.1680e+01 8.2592e+00
1.1688e+01 8.2608e+00
1.1696e+01 8.2591e+00
1.1705e+01 8.2656e+00
1.1713e+01 8.2579e+00
1.1721e+01 8.2550e+00
1.1729e+01 8.2606e+00
1.1738e+01 8.2519e+00
1.1746e+01 8.2523e+00
1.1754e+01 8.2449e+00
1.1762e+01 8.2355e+00
1.1771e+01 8.2404e+00
1.1779e+01 8.2347e+00
1.1787e+01 8.2348e+00
1.1795e+01 8.2374e+00
1.1804e+01 8.2382e+00
1.1812e+01 8.2328e+00
1.1820e+01 8.2389e+00
1.1828e+01 8.2218e+00
1.1837e+01 8.2232e+00
1.1845e+01 8.2216e+00
1.1853e+01 8.2272e+00
1.1861e+01 8.2179e+00
1.1870e+01 8.2142e+00
1.1878e+01 8.2114e+00
1.1886e+01 8.2106e+00
1.1894e+01 8.2146e+00
1.1903e+01 8.2013e+00
1.1911e+01 8.2035e+00
1.1919e+01 8.2076e+00
1.1927e+01 8.2103e+00
1.1936e+01 8.2146e+00
1.1944e+01 8.2162e+00
1.1952e+01 8.2051e+00
1.1960e+01 8.2042e+00
1.1969e+01 8.2031e+00
1.1977e+01 8.2018e+00
1.1985e+01 8.2015e+00
1.1993e+01 8.1927e+00
1.2002e+01 8.1918e+00
1.2010e+01 8.1929e+00
1.2018e+01 8.2040e+00
1.2026e+01 8.2030e+00
1.2035e+01 8.1988e+00
1.2043e+01 8.1983e+00
1.2051e+01 8.1985e+00
1.2059e+01 8.1977e+00
1.2068e+01 8.1942e+00
1.2076e+01 8.1775e+00
1.2084e+01 8.1744e+00
1.2092e+01 8.1742e+00
1.2101e+01 8.1574e+00
1.2109e+01 8.1624e+00
1.2117e+01 8.1606e+00
1.2125e+01 8.1629e+00
1.2134e+01 8.1547e+00
1.2142e+01 8.1545e+00
1.2150e+01 8.1578e+00
1.2158e+01 8.1449e+00
1.2167e+01 8.1452e+00
1.2175e+01 8.1645e+00
1.2183e+01 8.1648e+00
1.2191e+01 8.1584e+00
1.2200e+01 8.1615e+00
1.2208e+01 8.1475e+00
1.2216e+01 8.1418e+00
1.2224e+01 8.1471e+00
1.2233e+01 8.1512e+00
1.2241e+01 8.1447e+00
1.2249e+01 8.1331e+00
1.2257e+01 8.1318e+00
1.2266e+01 8.1380e+00
1.2274e+01 8.1453e+00
1.2282e+01 8.1380e+00
1.2290e+01 8.1377e+00
1.2299e+01 8.1323e+00
1.2307e+01 8.1274e+00
1.2315e+01 8.1258e+00
1.2323e+01 8.1282e+00
1.2332e+01 8.1367e+00
1.2340e+01 8.1323e+00
1.2348e+01 8.1245e+00
1.2356e+01 8.1160e+00
1.2365e+01 8.1151e+00
1.2373e+01 8.1232e+00
1.2381e+01 8.1164e+00
1.2389e+01 8.1208e+00
1.2398e+01 8.1215e+00
1.2406e+01 8.1164e+00
1.2414e+01 8.1181e+00
1.2422e+01 8.1103e+00
1.2431e+01 8.1112e+00
1.2439e+01 8.1173e+00
1.2447e+01 8.1068e+00
1.2455e+01 8.0980e+00
1.2464e+01 8.1014e+00
1.2472e+01 8.0999e+00
1.2480e+01 8.1093e+00
1.2488e+01 8.0998e+00
1.2497e+01 8.1111e+00
1.2505e+01 8.1025e+00
1.2513e+01 8.1015e+00
1.2521e+01 8.0914e+00
1.2530e+01 8.0919e+00
1.2538e+01 8.0921e+00
1.2546e+01 8.0957e+00
1.2554e+01 8.0977e+00
1.2563e+01 8.0901e+00
1.2571e+01 8.0873e+00
1.2579e+01 8.0819e+00
1.2587e+01 8.0915e+00
1.2596e+01 8.0872e+00
1.2604e+01 8.0804e+00
1.2612e+01 8.0836e+00
1.2620e+01 8.0836e+00
1.2629e+01 8.0759e+00
1.2637e+01 8.0807e+00
1.2645e+01 8.0878e+00
1.2653e+01 8.0878e+00
1.2662e+01 8.0856e+00
1.2670e+01 8.0841e+00
1.2678e+01 8.0785e+00
1.2686e+01 8.0785e+00
1.2695e+01 8.0788e+00
1.2703e+01 8.0705e+00
1.2711e+01 8.0657e+00
1.2719e+01 8.0561e+00
1.2728e+01 8.0523e+00
1.2736e+01 8.0587e+00
1.2744e+01 8.0656e+00
1.2752e+01 8.0614e+00
1.2761e+01 8.0610e+00
1.2769e+01 8.0629e+00
1.2777e+01 8.0668e+00
1.2785e+01 8.0660e+00
1.2794e+01 8.0625e+00
1.2802e+01 8.0594e+00
1.2810e+01 8.0502e+00
1.2818e+01 8.0472e+00
1.2827e+01 8.0420e+00
1.2835e+01 8.0388e+00
1.2843e+01 8.0361e+00
1.2851e+01 8.0318e+00
1.2860e+01 8.0323e+00
1.2868e+01 8.0314e+00
1.2876e+01 8.0316e+00
1.2884e+01 8.0265e+00
1.2893e+01 8.0219e+00
1.2901e+01 8.0215e+00
1.2909e+01 8.0269e+00
1.2918e+01 8.0327e+00
1.2926e+01 8.0248e+00
1.2934e+01 8.0255e+00
1.2942e+01 8.0326e+00
1.2951e+01 8.0280e+00
1.2959e+01 8.0229e+00
1.2967e+01 8.0182e+00
1.2975e+01 8.0129e+00
1.2984e+01 8.0001e+00
1.2992e+01 8.0057e+00
1.3000e+01 8.0058e+00
1.3008e+01 8.0149e+00
1.3017e+01 8.0110e+00
1.3025e+01 8.0089e+00
1.3033e+01 8.0048e+00
1.3041e+01 8.0027e+00
1.3050e+01 8.0031e+00
1.3058e+01 7.9974e+00
1.3066e+01 8.0021e+00
1.3074e+01 7.9999e+00
1.3083e+01 7.9833e+00
1.3091e+01 7.9839e+00
1.3099e+01 7.9883e+00
1.3107e+01 7.9909e+00
1.3116e+01 7.9847e+00
1.3124e+01 7.9663e+00
1.3132e+01 7.9706e+00
1.3140e+01 7.9700e+00
1.3149e+01 7.9701e+00
1.3157e+01 7.9770e+00
1.3165e+01 7.9827e+00
1.3173e+01 7.9879e+00
1.3182e+01 7.9717e+00
1.3190e+01 7.9709e+00
1.3198e+01 7.9583e+00
1.3206e+01 7.9677e+00
1.3215e+01 7.9768e+00
1.3223e+01 7.9773e+00
1.3231e+01 7.9717e+00
1.3239e+01 7.9705e+00
1.3248e+01 7.9617e+00
1.3256e+01 7.9640e+00
1.3264e+01 7.9597e+00
1.3273e+01 7.9598e+00
1.3281e+01 7.9497e+00
1.3289e+01 7.9564e+00
1.3297e+01 7.9522e+00
1.3306e+01 7.9429e+00
1.3314e+01 7.9518e+00
1.3322e+01 7.9530e+00
1.3330e+01 7.9523e+00
1.3339e+01 7.9531e+00
1.3347e+01 7.9410e+00
1.3355e+01 7.9414e+00
1.3363e+01 7.9455e+00
1.3372e+01 7.9503e+00
1.3380e+01 7.9321e+00
1.3388e+01 7.9358e+00
1.3396e+01 7.9313e+00
1.3405e+01 7.9330e+00
1.3413e+01 7.9378e+00
1.3421e+01 7.9383e+00
1.3429e+01 7.9250e+00
1.3438e+01 7.9260e+00
1.3446e+01 7.9147e+00
1.3454e+01 7.9162e+00
1.3462e+01 7.9118e+00
1.3471e+01 7.9017e+00
1.3479e+01 7.8886e+00
1.3487e+01 7.8954e+00
1.3496e+01 7.8957e+00
1.3504e+01 7.8992e+00
1.3512e+01 7.9076e+00
1.3520e+01 7.9068e+00
1.3529e+01 7.8867e+00
1.3537e+01 7.8938e+00
1.3545e+01 7.8784e+00
1.3553e+01 7.8803e+00
1.3562e+01 7.8692e+00
1.3570e+01 7.8675e+00
1.3578e+01 7.8839e+00
1.3586e+01 7.8906e+00
1.3595e+01 7.8944e+00
1.3603e+01 7.8872e+00
1.3611e+01 7.8971e+00
1.3619e+01 7.8939e+00
1.3628e+01 7.8812e+00
1.3636e+01 7.8766e+00
1.3644e+01 7.8708e+00
1.3652e+01 7.8655e+00
1.3661e+01 7.8564e+00
1.3669e+01 7.8655e+00
1.3677e+01 7.8838e+00
1.3686e+01 7.8966e+00
1.3694e+01 7.8991e+00
1.3702e+01 7.8982e+00
1.3710e+01 7.9050e+00
1.3719e+01 7.9111e+00
1.3727e+01 7.9062e+00
1.3735e+01 7.9110e+00
1.3743e+01 7.9116e+00
1.3752e+01 7.9179e+00
1.3760e+01 7.9248e+00
1.3768e+01 7.9168e+00
1.3776e+01 7.9261e+00
1.3785e+01 7.9079e+00
1.3793e+01 7.9221e+00
1.3801e+01 7.9331e+00
1.3809e+01 7.9257e+00
1.3818e+01 7.9277e+00
1.3826e+01 7.9396e+00
1.3834e+01 7.9425e+00
1.3842e+01 7.9352e+00
1.3851e+01 7.9336e+00
1.3859e+01 7.9300e+00
1.3867e+01 7.9396e+00
1.3876e+01 7.9325e+00
1.3884e+01 7.9340e+00
1.3892e+01 7.9247e+00
1.3900e+01 7.9385e+00
1.3909e+01 7.9401e+00
1.3917e+01 7.9468e+00
1.3925e+01 7.9395e+00
1.3933e+01 7.9322e+00
1.3942e+01 7.9278e+00
1.3950e+01 7.9372e+00
1.3958e+01 7.9434e+00
1.3966e+01 7.9513e+00
1.3975e+01 7.9563e+00
1.3983e+01 7.9541e+00
1.3991e+01 7.9456e+00
1.3999e+01 7.9519e+00
1.4008e+01 7.9591e+00
1.4016e+01 7.9540e+00
1.4024e+01 7.9702e+00
1.4033e+01 7.9606e+00
1.4041e+01 7.9561e+00
1.4049e+01 7.9561e+00
1.4057e+01 7.9551e+00
1.4066e+01 7.9585e+00
1.4074e+01 7.9512e+00
1.4082e+01 7.9637e+00
1.4090e+01 7.9551e+00
1.4099e+01 7.9526e+00
1.4107e+01 7.9579e+00
1.4115e+01 7.9514e+00
1.4123e+01 7.9462e+00
1.4132e+01 7.9417e+00
1.4140e+01 7.9355e+00
1.4148e+01 7.9386e+00
1.4157e+01 7.9455e+00
1.4165e+01 7.9433e+00
1.4173e+01 7.9397e+00
1.4181e+01 7.9479e+00
1.4190e+01 7.9465e+00
1.4198e+01 7.9557e+00
1.4206e+01 7.9467e+00
1.4214e+01 7.9353e+00
1.4223e+01 7.9348e+00
1.4231e+01 7.9391e+00
1.4239e+01 7.9397e+00
1.4247e+01 7.9348e+00
1.4256e+01 7.9382e+00
1.4264e+01 7.9473e+00
1.4272e+01 7.9521e+00
1.4281e+01 7.9436e+00
1.4289e+01 7.9215e+00
1.4297e+01 7.9275e+00
1.4305e+01 7.9341e+00
1.4314e+01 7.9360e+00
1.4322e+01 7.9269e+00
1.4330e+01 7.9347e+00
1.4338e+01 7.9278e+00
1.4347e+01 7.9236e+00
1.4355e+01 7.9224e+00
1.4363e+01 7.9257e+00
1.4371e+01 7.9287e+00
1.4380e+01 7.9301e+00
1.4388e+01 7.9343e+00
1.4396e+01 7.9355e+00
1.4405e+01 7.9425e+00
1.4413e+01 7.9402e+00
1.4421e+01 7.9372e+00
1.4429e+01 7.9384e+00
1.4438e+01 7.9524e+00
1.4446e+01 7.9370e+00
1.4454e+01 7.9260e+00
1.4462e+01 7.9327e+00
1.4471e+01 7.9219e+00
1.4479e+01 7.9230e+00
1.4487e+01 7.9167e+00
1.4495e+01 7.9161e+00
1.4504e+01 7.9142e+00
1.4512e+01 7.9154e+00
1.4520e+01 7.9023e+00
1.4529e+01 7.9081e+00
1.4537e+01 7.9108e+00
1.4545e+01 7.8838e+00
1.4553e+01 7.8923e+00
1.4562e+01 7.9010e+00
1.4570e+01 7.8837e+00
1.4578e+01 7.9052e+00
1.4586e+01 7.8926e+00
1.4595e+01 7.8864e+00
1.4603e+01 7.8981e+00
1.4611e+01 7.9011e+00
1.4619e+01 7.8965e+00
1.4628e+01 7.8793e+00
1.4636e+01 7.8852e+00
1.4644e+01 7.8836e+00
1.4653e+01 7.8837e+00
1.4661e+01 7.8890e+00
1.4669e+01 7.9066e+00
1.4677e+01 7.8984e+00
1.4686e+01 7.8874e+00
1.4694e+01 7.8879e+00
1.4702e+01 7.9011e+00
1.4710e+01 7.8961e+00
1.4719e+01 7.8892e+00
1.4727e+01 7.8642e+00
1.4735e+01 7.8730e+00
1.4744e+01 7.8713e+00
1.4752e+01 7.8635e+00
1.4760e+01 7.8706e+00
1.4768e+01 7.8660e+00
1.4777e+01 7.8535e+00
1.4785e+01 7.8488e+00
1.4793e+01 7.8683e+00
1.4801e+01 7.8685e+00
1.4810e+01 7.8583e+00
1.4818e+01 7.8589e+00
1.4826e+01 7.8588e+00
1.4835e+01 7.8652e+00
1.4843e+01 7.8578e+00
1.4851e+01 7.8608e+00
1.4859e+01 7.8595e+00
1.4868e+01 7.8541e+00
1.4876e+01 7.8474e+00
1.4884e+01 7.8585e+00
1.4892e+01 7.8527e+00
1.4901e+01 7.8548e+00
1.4909e+01 7.8617e+00
1.4917e+01 7.8479e+00
1.4926e+01 7.8601e+00
1.4934e+01 7.8571e+00
1.4942e+01 7.8599e+00
1.4950e+01 7.8620e+00
1.4959e+01 7.8474e+00
1.4967e+01 7.8363e+00
1.4975e+01 7.8275e+00
1.4983e+01 7.8438e+00
1.4992e+01 7.8376e+00
1.5000e+01 7.8474e+00
1.5008e+01 7.8426e+00
1.5017e+01 7.8383e+00
1.5025e+01 7.8411e+00
1.5033e+01 7.8223e+00
1.5041e+01 7.8513e+00
1.5050e+01 7.8373e+00
1.5058e+01 7.8298e+00
1.5066e+01 7.8431e+00
1.5074e+01 7.8316e+00
1.5083e+01 7.8454e+00
1.5091e+01 7.8303e+00
1.5099e+01 7.8340e+00
1.5108e+01 7.8344e+00
1.5116e+01 7.8257e+00
1.5124e+01 7.8291e+00
1.5132e+01 7.8204e+00
1.5141e+01 7.8194e+00
1.5149e+01 7.8347e+00
1.5157e+01 7.8283e+00
1.5165e+01 7.8321e+00
1.5174e+01 7.8346e+00
1.5182e+01 7.8263e+00
1.5190e+01 7.8223e+00
1.5199e+01 7.8285e+00
1.5207e+01 7.8382e+00
1.5215e+01 7.8153e+00
1.5223e+01 7.8146e+00
1.5232e+01 7.8052e+00
1.5240e+01 7.8081e+00
1.5248e+01 7.8175e+00
1.5256e+01 7.7951e+00
1.5265e+01 7.8069e+00
1.5273e+01 7.8141e+00
1.5281e+01 7.8119e+00
1.5290e+01 7.7943e+00
1.5298e+01 7.7973e+00
1.5306e+01 7.7970e+00
1.5314e+01 7.8131e+00
1.5323e+01 7.8035e+00
1.5331e+01 7.7789e+00
1.5339e+01 7.7890e+00
1.5348e+01 7.7758e+00
1.5356e+01 7.7859e+00
1.5364e+01 7.7685e+00
1.5372e+01 7.7724e+00
1.5381e+01 7.7819e+00
1.5389e+01 7.7777e+00
1.5397e+01 7.7691e+00
1.5405e+01 7.7892e+00
1.5414e+01 7.7958e+00
1.5422e+01 7.7796e+00
1.5430e+01 7.7849e+00
1.5439e+01 7.7885e+00
1.5447e+01 7.7666e+00
1.5455e+01 7.7742e+00
1.5463e+01 7.7525e+00
1.5472e+01 7.7812e+00
1.5480e+01 7.7711e+00
1.5488e+01 7.7554e+00
1.5497e+01 7.7589e+00
1.5505e+01 7.7630e+00
1.5513e+01 7.7589e+00
1.5521e+01 7.7644e+00
1.5530e+01 7.7720e+00
1.5538e+01 7.7674e+00
1.5546e+01 7.7703e+00
1.5554e+01 7.7813e+00
1.5563e+01 7.7602e+00
1.5571e+01 7.7536e+00
1.5579e+01 7.7470e+00
1.5588e+01 7.7492e+00
1.5596e+01 7.7637e+00
1.5604e+01 7.7591e+00
1.5612e+01 7.7642e+00
1.5621e+01 7.7675e+00
1.5629e+01 7.7672e+00
1.5637e+01 7.7635e+00
1.5646e+01 7.7404e+00
1.5654e+01 7.7522e+00
1.5662e+01 7.7408e+00
1.5670e+01 7.7438e+00
1.5679e+01 7.7412e+00
1.5687e+01 7.7436e+00
1.5695e+01 7.7391e+00
1.5703e+01 7.7482e+00
1.5712e+01 7.7372e+00
1.5720e+01 7.7689e+00
1.5728e+01 7.7807e+00
1.5737e+01 7.7726e+00
1.5745e+01 7.7452e+00
1.5753e+01 7.7457e+00
1.5761e+01 7.7587e+00
1.5770e+01 7.7487e+00
1.5778e+01 7.7374e+00
1.5786e+01 7.7099e+00
1.5795e+01 7.7322e+00
1.5803e+01 7.7229e+00
1.5811e+01 7.7063e+00
1.5819e+01 7.7126e+00
1.5828e+01 7.6950e+00
1.5836e+01 7.7204e+00
1.5844e+01 7.7407e+00
1.5853e+01 7.7376e+00
1.5861e+01 7.7157e+00
1.5869e+01 7.7234e+00
1.5877e+01 7.7273e+00
1.5886e+01 7.7194e+00
1.5894e+01 7.7035e+00
1.5902e+01 7.6802e+00
1.5911e+01 7.6791e+00
1.5919e+01 7.7023e+00
1.5927e+01 7.6944e+00
1.5935e+01 7.6954e+00
1.5944e+01 7.7057e+00
1.5952e+01 7.6928e+00
1.5960e+01 7.7002e+00
1.5968e+01 7.6931e+00
1.5977e+01 7.6673e+00
1.5985e+01 7.6521e+00
1.5993e+01 7.6489e+00
1.6002e+01 7.6552e+00
1.6010e+01 7.6486e+00
1.6018e+01 7.6838e+00
1.6026e+01 7.6771e+00
1.6035e+01 7.6826e+00
1.6043e+01 7.6946e+00
1.6051e+01 7.6878e+00
1.6060e+01 7.6803e+00
1.6068e+01 7.6836e+00
1.6076e+01 7.6559e+00
1.6084e+01 7.6503e+00
1.6093e+01 7.6574e+00
1.6101e+01 7.6604e+00
1.6109e+01 7.6546e+00
1.6118e+01 7.6642e+00
1.6126e+01 7.6473e+00
1.6134e+01 7.6302e+00
1.6142e+01 7.6493e+00
1.6151e+01 7.6433e+00
1.6159e+01 7.6451e+00
1.6167e+01 7.6492e+00
1.6176e+01 7.6335e+00
1.6184e+01 7.6283e+00
1.6192e+01 7.6105e+00
1.6200e+01 7.6279e+00
1.6209e+01 7.6073e+00
1.6217e+01 7.5908e+00
1.6225e+01 7.5902e+00
1.6234e+01 7.6214e+00
1.6242e+01 7.5979e+00
1.6250e+01 7.5773e+00
1.6258e+01 7.6014e+00
1.6267e+01 7.5935e+00
1.6275e+01 7.6005e+00
1.6283e+01 7.5863e+00
1.6292e+01 7.5931e+00
1.6300e+01 7.5884e+00
1.6308e+01 7.5970e+00
1.6316e+01 7.5892e+00
1.6325e+01 7.5943e+00
1.6333e+01 7.5836e+00
1.6341e+01 7.5858e+00
1.6350e+01 7.6058e+00
1.6358e+01 7.5945e+00
1.6366e+01 7.5754e+00
1.6374e+01 7.5803e+00
1.6383e+01 7.5718e+00
1.6391e+01 7.5941e+00
1.6399e+01 7.5742e+00
1.6408e+01 7.5529e+00
1.6416e+01 7.5506e+00
1.6424e+01 7.5220e+00
1.6432e+01 7.5604e+00
1.6441e+01 7.5826e+00
1.6449e+01 7.5478e+00
1.6457e+01 7.5746e+00
1.6466e+01 7.5726e+00
1.6474e+01 7.5490e+00
1.6482e+01 7.5348e+00
1.6490e+01 7.5517e+00
1.6499e+01 7.5294e+00
1.6507e+01 7.5297e+00
1.6515e+01 7.5417e+00
1.6524e+01 7.5722e+00
1.6532e+01 7.5555e+00
1.6540e+01 7.5371e+00
1.6548e+01 7.5388e+00
1.6557e+01 7.5369e+00
1.6565e+01 7.5289e+00
1.6573e+01 7.5421e+00
1.6582e+01 7.5557e+00
1.6590e+01 7.5374e+00
1.6598e+01 7.5380e+00
1.6607e+01 7.5337e+00
1.6615e+01 7.5262e+00
1.6623e+01 7.5204e+00
1.6631e+01 7.5016e+00
1.6640e+01 7.4993e+00
1.6648e+01 7.5073e+00
1.6656e+01 7.5121e+00
1.6665e+01 7.5742e+00
1.6673e+01 7.5730e+00
1.6681e+01 7.5445e+00
1.6689e+01 7.5343e+00
1.6698e+01 7.5260e+00
1.6706e+01 7.4808e+00
1.6714e+01 7.4426e+00
1.6723e+01 7.4907e+00
1.6731e+01 7.5077e+00
1.6739e+01 7.5097e+00
1.6747e+01 7.4995e+00
1.6756e+01 7.4949e+00
1.6764e+01 7.5019e+00
1.6772e+01 7.4948e+00
1.6781e+01 7.4489e+00
1.6789e+01 7.4691e+00
1.6797e+01 7.5109e+00
1.6805e+01 7.5208e+00
1.6814e+01 7.5125e+00
1.6822e+01 7.5178e+00
1.6830e+01 7.5264e+00
1.6839e+01 7.5410e+00
1.6847e+01 7.5079e+00
1.6855e+01 7.4811e+00
1.6864e+01 7.4908e+00
1.6872e+01 7.4674e+00
1.6880e+01 7.4459e+00
1.6888e+01 7.4995e+00
1.6897e+01 7.5338e+00
1.6905e+01 7.5113e+00
1.6913e+01 7.4703e+00
1.6922e+01 7.4555e+00
1.6930e+01 7.4630e+00
1.6938e+01 7.4719e+00
1.6946e+01 7.4259e+00
1.6955e+01 7.4056e+00
1.6963e+01 7.4469e+00
1.6971e+01 7.4234e+00
1.6980e+01 7.3854e+00
1.6988e+01 7.3889e+00
1.6996e+01 7.3451e+00
1.7005e+01 7.3415e+00
1.7013e+01 7.3665e+00
1.7021e+01 7.3620e+00
1.7029e+01 7.3188e+00
1.7038e+01 7.3976e+00
1.7046e+01 7.4039e+00
1.7054e+01 7.3145e+00
1.7063e+01 7.3380e+00
1.7071e+01 7.3343e+00
1.7079e+01 7.2837e+00
1.7087e+01 7.2957e+00
1.7096e+01 7.2514e+00
1.7104e+01 7.1541e+00
1.7112e+01 7.1276e+00
1.7121e+01 7.0803e+00
1.7129e+01 7.0788e+00
1.7137e+01 7.0603e+00
1.7146e+01 6.7489e+00
1.7154e+01 6.5082e+00
1.7162e+01 6.3840e+00
1.7170e+01 5.8759e+00
1.7179e+01 5.3946e+00
1.7187e+01 5.0159e+00
1.7195e+01 4.9742e+00
